FFT	AudioTools 	v36 iPad battery  28%	15/05/2023, 19:58	USB-C to 3.5mm Headphone Jack Adapter L Mic Low Range	3E413E14-4E3E-409A-A5B7-705B65920E1E
Frequency	dB	Unweighted
19.5	52.3
19.8	52.6
20.1	52.8
20.3	53
20.6	53.3
20.9	53.5
21.2	53.8
21.6	54
21.9	54.2
22.2	54.5
22.5	54.7
22.8	54.9
23.2	55.2
23.5	55.4
23.8	55.7
24.2	55.9
24.5	56.1
24.9	56.5
25.3	56.7
25.6	57
26	57.1
26.4	57.3
26.8	57.5
27.2	57.7
27.5	57.7
28	57.9
28.4	58
28.8	58.2
29.2	58.4
29.6	58.6
30	59
30.5	59.3
30.9	59.5
31.4	59.6
31.8	59.7
32.3	59.9
32.8	60
33.2	60.1
33.7	60.3
34.2	60.5
34.7	60.6
35.2	60.8
35.7	60.9
36.2	61.1
36.8	61.3
37.3	61.6
37.9	61.8
38.4	62.1
39	62.4
39.5	62.6
40.1	62.7
40.7	62.8
41.3	62.8
41.9	63
42.5	63.2
43.1	63.4
43.7	63.5
44.4	63.6
45	63.5
45.7	63.6
46.3	63.7
47	64
47.7	64.2
48.4	64.3
49.1	64.2
49.8	64.1
50.5	64.3
51.3	64.5
52	64.6
52.8	64.7
53.5	64.8
54.3	64.8
55.1	64.8
55.9	64.9
56.7	65.1
57.5	65.2
58.4	65.4
59.2	65.6
60.1	65.7
61	65.8
61.8	65.7
62.7	65.7
63.7	65.8
64.6	65.9
65.5	66.1
66.5	66.1
67.4	66.2
68.4	66.3
69.4	66.3
70.4	66.3
71.5	66.3
72.5	66.4
73.5	66.2
74.6	66
75.7	65.9
76.8	65.9
77.9	66
79.1	66.1
80.2	66.2
81.4	66.1
82.6	66
83.8	65.8
85	65.7
86.2	65.8
87.5	66
88.7	66.2
90	66.3
91.3	66.2
92.7	66.3
94	66.4
95.4	66.2
96.8	66.2
98.2	66.2
99.6	66.4
101	66.3
103	66.2
104	66.3
106	66.4
107	66.4
109	66.3
110	66.1
112	65.9
113	65.8
115	66
117	66.1
118	66.1
120	66
122	66
124	65.7
125	65.5
127	65.5
129	65.5
131	65.4
133	65.5
135	65.5
137	65.5
139	65.2
141	65.2
143	65.2
145	65.1
147	65
149	65
151	64.9
154	64.7
156	64.3
158	64.3
160	64.3
163	64.2
165	64
168	63.7
170	63.6
172	63.8
175	63.7
177	63.6
180	63.5
183	63.6
185	63.5
188	63.4
191	63.4
194	63.4
196	62.9
199	62.8
202	62.8
205	62.7
208	62.5
211	62.6
214	62.6
217	62.4
220	62.3
224	62.2
227	61.9
230	61.9
234	62
237	62
240	61.9
244	61.9
247	62.3
251	62.4
255	62.2
258	62
262	62.5
266	62.7
270	62.6
274	62.6
278	62.7
282	62.6
286	62.4
290	62.4
294	62.3
298	62.1
303	62
307	61.8
312	61.5
316	61.4
321	61.3
325	61.3
330	61.1
335	60.9
340	60.7
345	60.5
350	60.3
355	60.3
360	60.4
365	60.4
371	60.2
376	60.1
382	59.9
387	59.9
393	60.1
398	60
404	60
410	60.2
416	60.9
422	61
428	60.9
434	60.8
441	60.9
447	60.9
454	60.8
460	60.6
467	60.2
474	60.1
481	60.2
488	60.2
495	60
502	60.1
509	60.1
517	60.2
524	60.2
532	60.1
540	59.9
547	59.8
555	59.6
563	59.6
572	59.6
580	59.7
588	59.5
597	59.3
606	59.3
614	59.3
623	59.2
632	59.1
642	59.1
651	59
660	58.9
670	58.9
680	58.9
690	58.9
700	58.9
710	59.1
720	59
731	58.9
741	59.1
752	59.2
763	59.1
774	59
785	58.9
797	59
808	59.1
820	59
832	59
844	58.9
856	58.9
869	58.7
882	58.6
894	58.5
907	58.5
921	58.4
934	58.6
948	58.8
961	58.7
975	58.7
990	58.9
1004	59
1019	59
1033	58.9
1048	58.9
1064	58.8
1079	58.9
1095	58.9
1111	58.7
1127	58.7
1143	58.7
1160	58.6
1177	58.3
1194	58.1
1211	58.1
1229	58.1
1247	57.8
1265	57.7
1283	57.6
1302	57.5
1321	57.5
1340	57.4
1360	57.5
1379	57.5
1399	57.5
1420	57.5
1440	57.3
1461	57.3
1483	57.4
1504	57.4
1526	57.3
1548	57.2
1571	57.3
1594	57.3
1617	57.4
1640	57.4
1664	57.2
1688	57.2
1713	57.3
1738	57.2
1763	57
1789	56.9
1815	56.9
1841	56.9
1868	56.7
1895	56.7
1923	56.9
1951	57
1979	57.1
2008	57.2
2037	57.3
2067	57.4
2097	57.5
2127	57.5
2158	57.9
2190	58.1
2221	58.1
2254	58.3
2287	58.3
2320	58.5
2354	58.7
2388	58.8
2423	58.9
2458	59
2494	59.2
2530	59.3
2567	59.3
2604	59.4
2642	59.5
2680	59.6
2719	59.5
2759	59.5
2799	59.4
2840	59.4
2881	59.4
2923	59.4
2965	59.4
3008	59.3
3052	59.1
3097	59.1
3142	59
3187	58.8
3234	58.8
3281	58.8
3328	58.7
3377	58.6
3426	58.5
3476	58.4
3526	58.6
3578	58.7
3630	58.7
3682	58.7
3736	58.6
3790	58.6
3846	58.7
3901	58.9
3958	59
4016	59.2
4074	59.6
4133	59.8
4194	60
4255	60.5
4316	61
4379	61.7
4443	62.7
4508	63.4
4573	63.9
4640	64.1
4707	65.3
4776	65.3
4845	64.9
4916	64.2
4987	63.9
5060	63.2
5133	62.2
5208	61.3
5284	59.8
5360	58.8
5438	58
5518	57.1
5598	55.8
5679	54.6
5762	54.3
5846	54
5931	54
6017	53.7
6104	53.7
6193	53.6
6283	53.9
6375	54.1
6467	54.4
6561	54.9
6657	54.7
6754	55
6852	55.9
6952	56.3
7053	56.4
7155	56.8
7259	57.1
7365	57.4
7472	57
7581	56.8
7691	56.4
7803	56.3
7916	56.2
8032	56.1
8148	56.1
8267	56.3
8387	56.9
8509	57.3
8633	57.7
8758	57.8
8886	58.3
9015	58.5
9146	58.6
9279	58.7
9414	58.8
9551	58.5
9690	57.2
9831	56.4
9974	54.1
10119	53.1
10266	51.8
10416	50.2
10567	50.3
10721	49.2
10877	48.4
11035	47.8
11196	47.2
11358	46.9
11524	46.6
11691	46.3
11861	45.6
12034	45.6
12209	45.6
12386	46.2
12567	48.2
12749	49.2
12935	51.6
13123	52.7
13314	52.6
13507	49.6
13704	47.4
13903	45.8
14105	43.7
14311	42.9
14519	41.7
14730	41.7
14944	41.7
15162	41.7
15382	41.9
15606	40.8
15833	40
16063	40.2
16297	42
16534	43.7
16774	45.7
17018	48.2
17266	48.2
17517	45.3
17772	43.6
18030	42.7
18293	42.6
18559	42.2
18829	40.2
19102	39.3
19380	38.6
20000	36.4
overall dB	82.7 dB
decay	Average
averaging	1/24 Octave
source	USB-C to 3.5mm Headphone Jack Adapter L Mic Low Range
latitude	52
longitude	4.358
saved	15/05/2023, 19:58
peak	68.8Hz
