FFT	AudioTools 	v16.1.4 iPad battery 100%	07/01/2023, 12:44	USB-C to 3.5mm Headphone Jack Adapter L Mic Low Range	3E413E14-4E3E-409A-A5B7-705B65920E1E
Frequency	dB	Unweighted
19.5	42
19.8	42.1
20.1	42.2
20.3	42.3
20.6	42.6
20.9	42.7
21.2	42.8
21.6	42.9
21.9	43.1
22.2	43.3
22.5	43.4
22.8	43.5
23.2	43.6
23.5	43.7
23.8	43.9
24.2	44
24.5	44.1
24.9	44.3
25.3	44.4
25.6	44.5
26	44.6
26.4	44.7
26.8	44.8
27.2	44.9
27.5	45
28	45.1
28.4	45.1
28.8	45.2
29.2	45.3
29.6	45.3
30	45.4
30.5	45.5
30.9	45.4
31.4	45.4
31.8	45.5
32.3	45.5
32.8	45.5
33.2	45.6
33.7	45.7
34.2	45.8
34.7	45.9
35.2	46
35.7	46.1
36.2	46.2
36.8	46.2
37.3	46.2
37.9	46.3
38.4	46.4
39	46.5
39.5	46.5
40.1	46.5
40.7	46.4
41.3	46.2
41.9	46.1
42.5	46.1
43.1	46.3
43.7	46.4
44.4	46.4
45	46.4
45.7	46.3
46.3	46.3
47	46.4
47.7	46.6
48.4	46.7
49.1	46.7
49.8	46.7
50.5	46.7
51.3	46.8
52	46.8
52.8	46.7
53.5	46.7
54.3	46.5
55.1	46.5
55.9	46.5
56.7	46.7
57.5	46.9
58.4	47
59.2	47
60.1	47.1
61	47.1
61.8	47.1
62.7	47
63.7	47
64.6	47.1
65.5	47.2
66.5	47.2
67.4	47.3
68.4	47.4
69.4	47.4
70.4	47.5
71.5	47.5
72.5	47.5
73.5	47.2
74.6	47.1
75.7	47
76.8	47.1
77.9	47.2
79.1	47.3
80.2	47.3
81.4	47.2
82.6	47.1
83.8	47.1
85	47.1
86.2	47.4
87.5	47.5
88.7	47.6
90	47.6
91.3	47.5
92.7	47.6
94	47.8
95.4	47.6
96.8	47.6
98.2	47.7
99.6	47.9
101	47.8
103	47.7
104	47.8
106	47.8
107	47.8
109	47.7
110	47.7
112	47.7
113	47.7
115	47.7
117	47.7
118	47.7
120	47.8
122	47.9
124	47.8
125	47.7
127	47.7
129	47.7
131	47.6
133	47.6
135	47.6
137	47.6
139	47.5
141	47.5
143	47.5
145	47.4
147	47.3
149	47.3
151	47.3
154	47.3
156	47.2
158	47.1
160	47.1
163	47
165	46.9
168	46.7
170	46.7
172	46.8
175	46.7
177	46.7
180	46.8
183	46.8
185	46.7
188	46.5
191	46.5
194	46.5
196	46.3
199	46.2
202	46.1
205	46.1
208	46
211	46
214	46
217	45.9
220	45.9
224	45.8
227	45.7
230	45.6
234	45.8
237	46
240	45.9
244	45.9
247	46.3
251	46.3
255	46.2
258	46
262	46.6
266	46.7
270	46.7
274	46.7
278	46.8
282	46.9
286	46.7
290	46.6
294	46.4
298	46.3
303	46.2
307	46.1
312	45.8
316	45.7
321	45.7
325	45.6
330	45.3
335	45.1
340	44.9
345	44.7
350	44.6
355	44.6
360	44.5
365	44.3
371	44.2
376	44.2
382	44.1
387	44
393	44.2
398	44.1
404	44.1
410	44.1
416	44.6
422	44.7
428	44.7
434	44.6
441	44.6
447	44.6
454	44.5
460	44.3
467	43.9
474	43.7
481	43.5
488	43.4
495	43.2
502	43.1
509	43.1
517	43
524	42.7
532	42.5
540	42.3
547	42.3
555	42
563	41.9
572	41.8
580	41.7
588	41.4
597	41.2
606	41.1
614	40.9
623	40.6
632	40.5
642	40.4
651	40.2
660	40
670	39.8
680	39.6
690	39.5
700	39.5
710	39.4
720	39.3
731	39.1
741	39.1
752	38.9
763	38.9
774	38.8
785	38.6
797	38.6
808	38.6
820	38.5
832	38.3
844	38.3
856	38.3
869	38.2
882	38
894	38.1
907	38.1
921	38.1
934	38.2
948	38.4
961	38.3
975	37.9
990	38.1
1004	38.3
1019	38.4
1033	38.5
1048	38.7
1064	38.7
1079	38.8
1095	38.9
1111	38.7
1127	38.7
1143	38.7
1160	38.5
1177	38.3
1194	38.3
1211	38.2
1229	38.1
1247	37.9
1265	37.7
1283	37.7
1302	37.5
1321	37.6
1340	37.5
1360	37.4
1379	37.5
1399	37.5
1420	37.4
1440	37.4
1461	37.3
1483	37.3
1504	37.2
1526	37.3
1548	37.2
1571	37.2
1594	37.1
1617	37.2
1640	37.2
1664	37
1688	36.9
1713	37
1738	37
1763	36.7
1789	36.6
1815	36.7
1841	36.7
1868	36.6
1895	36.7
1923	36.9
1951	37
1979	37.1
2008	37.4
2037	37.5
2067	37.8
2097	38
2127	38.1
2158	38
2190	37.6
2221	36.1
2254	35.4
2287	35.5
2320	36.7
2354	37.5
2388	38.2
2423	39.2
2458	39.7
2494	40.4
2530	40.6
2567	40.9
2604	41
2642	41
2680	40.7
2719	40.4
2759	40.1
2799	39.6
2840	39.2
2881	38.9
2923	38.5
2965	38.2
3008	37.5
3052	37.3
3097	37.3
3142	36.7
3187	36.5
3234	36.2
3281	35.9
3328	35.7
3377	35.4
3426	34.8
3476	34.4
3526	34.4
3578	33.8
3630	33.2
3682	32.7
3736	32.3
3790	31.4
3846	31
3901	30.5
3958	29.6
4016	29.3
4074	29.7
4133	30.4
4194	30.2
4255	30.5
4316	31.5
4379	32.3
4443	33.6
4508	34.8
4573	36.3
4640	37.8
4707	40.3
4776	41.8
4845	43.3
4916	45.6
4987	47.9
5060	49.9
5133	51.7
5208	52.6
5284	52.7
5360	52.9
5438	53
5518	52.6
5598	51.1
5679	48.2
5762	46.5
5846	44.3
5931	42
6017	40.2
6104	38.4
6193	36.5
6283	35.5
6375	34.3
6467	33.3
6561	32.4
6657	30.8
6754	29.9
6852	28.7
6952	28
7053	26.8
7155	25.9
7259	25.4
7365	24.7
7472	23.8
7581	23.5
7691	22.9
7803	22.6
7916	22.3
8032	21.9
8148	21.8
8267	22.1
8387	22.7
8509	23
8633	23.4
8758	23.8
8886	24.9
9015	25.5
9146	26.5
9279	28.5
9414	29.9
9551	31.8
9690	33.5
9831	33.2
9974	30.8
10119	29.3
10266	27.2
10416	24.3
10567	23.9
10721	22.1
10877	21.4
11035	21
11196	20.9
11358	21.3
11524	22.3
11691	24
11861	23.8
12034	22.6
12209	21.2
12386	20
12567	18.7
12749	18
12935	16.7
13123	16.2
13314	16.2
13507	16.2
13704	16.4
13903	16.9
14105	18.2
14311	18.6
14519	17.9
14730	16.7
14944	16.5
15162	16.6
15382	17.5
15606	21.1
15833	21.6
16063	20.6
16297	15.1
16534	10.7
16774	8.8
17018	8.6
17266	9.7
17517	16.2
17772	22
18030	23.1
18293	16.3
18559	13.5
18829	12.2
19102	12.6
19380	13.2
20000	14.2
overall dB	67.9 dB
decay	Average
averaging	1/24 Octave
source	USB-C to 3.5mm Headphone Jack Adapter L Mic Low Range
latitude	52
longitude	4.358
saved	07/01/2023, 12:44
peak	39.6Hz
